------- AERODYN v15.00.* BLADE DEFINITION INPUT FILE -------------------------------------
IEA 15 MW Offshore Reference Turbine
======  Blade Properties =================================================================
50          NumBlNds    - Number of blade nodes used in the analysis (-)
    BlSpn        BlCrvAC        BlSwpAC        BlCrvAng       BlTwist        BlChord          BlAFID
     (m)           (m)            (m)            (deg)         (deg)           (m)              (-)
 0.000000000000000e+00  0.000000000000000e+00  0.000000000000000e+00  4.415264919500745e-01  1.559455301971172e+01  5.200000000000000e+00        1
 2.387753704536792e+00  1.840006526650623e-02  0.000000000000000e+00  5.069254415048082e-01  1.558773861176889e+01  5.208839941579524e+00        2
 4.775507409073585e+00  4.225083661157623e-02  0.000000000000000e+00  6.352200196623214e-01  1.541083467878359e+01  5.237887092263203e+00        3
 7.163261113610377e+00  7.134350705183060e-02  0.000000000000000e+00  7.362746903995454e-01  1.494855563474368e+01  5.293325313383697e+00        4
 9.551014818147170e+00  1.036164118664373e-01  0.000000000000000e+00  7.875289264093803e-01  1.425845480678574e+01  5.367339854814920e+00        5
 1.193876852268396e+01  1.369806593288264e-01  0.000000000000000e+00  7.902173561165478e-01  1.339714163725627e+01  5.452092684226667e+00        6
 1.432652222722075e+01  1.694776190250627e-01  0.000000000000000e+00  7.382169727379655e-01  1.242201947682708e+01  5.540031728503847e+00        7
 1.671427593175755e+01  1.985081071671127e-01  0.000000000000000e+00  6.438880053096286e-01  1.139457131628079e+01  5.621824261194381e+00        8
 1.910202963629434e+01  2.231434779102857e-01  0.000000000000000e+00  5.042455218902482e-01  1.037097608496841e+01  5.692531175149338e+00        9
 2.148978334083113e+01  2.405355856565585e-01  0.000000000000000e+00  3.086160838555976e-01  9.403999874823057e+00  5.742610890726970e+00       10
 2.387753704536793e+01  2.488659880324552e-01  0.000000000000000e+00  1.165165342723442e-01  8.551522201182079e+00  5.764836827022541e+00       11
 2.626529074990471e+01  2.502470372487695e-01  0.000000000000000e+00  6.557893015517897e-03  7.833153039627247e+00  5.756119529852528e+00       12
 2.865304445444151e+01  2.494125774476143e-01  0.000000000000000e+00 -3.216483543098376e-02  7.191354972096501e+00  5.703098512750650e+00       13
 3.104079815897830e+01  2.475661521443230e-01  0.000000000000000e+00 -5.513862899732349e-02  6.551629060916145e+00  5.604676021602162e+00       14
 3.342855186351510e+01  2.448168656360790e-01  0.000000000000000e+00 -7.514545885776826e-02  5.933995702189942e+00  5.471559126660524e+00       15
 3.581630556805188e+01  2.413029056067397e-01  0.000000000000000e+00 -9.390972080942012e-02  5.346089613189348e+00  5.322778014171772e+00       16
 3.820405927258868e+01  2.369896509524698e-01  0.000000000000000e+00 -1.065415489709466e-01  4.796333947019595e+00  5.166482288167050e+00       17
 4.059181297712547e+01  2.324228507824927e-01  0.000000000000000e+00 -1.401111184071248e-01  4.296593562725417e+00  5.019421327310202e+00       18
 4.297956668166226e+01  2.253116351742779e-01  0.000000000000000e+00 -2.568673924496735e-01  3.846955194686785e+00  4.885807888739599e+00       19
 4.536732038619906e+01  2.110134548882222e-01  0.000000000000000e+00 -4.688861909726882e-01  3.445342056797746e+00  4.767959675121795e+00       20
 4.775507409073585e+01  1.862311914711773e-01  0.000000000000000e+00 -7.568785859908402e-01  3.076913909773020e+00  4.654566079625438e+00       21
 5.014282779527264e+01  1.479307251853749e-01  0.000000000000000e+00 -1.052988340519905e+00  2.733562457425842e+00  4.541031051711910e+00       22
 5.253058149980943e+01  9.847131457569316e-02  0.000000000000000e+00 -1.281660126617137e+00  2.412234674442038e+00  4.428175577624730e+00       23
 5.491833520434623e+01  4.111540547132665e-02  0.000000000000000e+00 -1.449623967041331e+00  2.111690772172129e+00  4.316958876583997e+00       24
 5.730608890888303e+01 -2.233952894219675e-02  0.000000000000000e+00 -1.559394899211002e+00  1.828396455235506e+00  4.207880735790049e+00       25
 5.969384261341982e+01 -8.884150619038655e-02  0.000000000000000e+00 -1.638890275332083e+00  1.558783420877334e+00  4.101646187027423e+00       26
 6.208159631795661e+01 -1.589196662009639e-01  0.000000000000000e+00 -1.822810880905791e+00  1.302436869719713e+00  3.998712335312356e+00       27
 6.446935002249339e+01 -2.407441175807782e-01  0.000000000000000e+00 -2.132789415076718e+00  1.064427371073839e+00  3.899408676051565e+00       28
 6.685710372703018e+01 -3.366430472730907e-01  0.000000000000000e+00 -2.474623938108035e+00  8.434461662411673e-01  3.803172543681295e+00       29
 6.924485743156698e+01 -4.469357654998782e-01  0.000000000000000e+00 -2.777661467455415e+00  6.365641868417889e-01  3.709389453654426e+00       30
 7.163261113610376e+01 -5.680658106768092e-01  0.000000000000000e+00 -3.007861685870409e+00  4.370289000217617e-01  3.617111741572532e+00       31
 7.402036484064057e+01 -6.975208703059096e-01  0.000000000000000e+00 -3.169771521204822e+00  2.396567933387980e-01  3.525634918177657e+00       32
 7.640811854517736e+01 -8.321262196998409e-01  0.000000000000000e+00 -3.270521201338557e+00  3.967768814723920e-02  3.434082670567315e+00       33
 7.879587224971415e+01 -9.699653368698024e-01  0.000000000000000e+00 -3.324869783452861e+00 -1.728281243479747e-01  3.341933111457596e+00       34
 8.118362595425094e+01 -1.109093048668582e+00  0.000000000000000e+00 -3.423571263360676e+00 -4.070838313820219e-01  3.248678447761413e+00       35
 8.357137965878775e+01 -1.255144506570033e+00  0.000000000000000e+00 -3.617036320999415e+00 -6.803776144613040e-01  3.156109679927359e+00       36
 8.595913336332453e+01 -1.410366773545645e+00  0.000000000000000e+00 -3.820016947739197e+00 -9.992936104276490e-01  3.064580004833834e+00       37
 8.834688706786133e+01 -1.573300700746276e+00  0.000000000000000e+00 -4.000084747641014e+00 -1.320525255517711e+00  2.972992647082487e+00       38
 9.073464077239812e+01 -1.743496377108846e+00  0.000000000000000e+00 -4.156740867350255e+00 -1.623298762065715e+00  2.880705106690617e+00       39
 9.312239447693490e+01 -1.919454260902880e+00  0.000000000000000e+00 -4.282348427429983e+00 -1.884368146311783e+00  2.786969376686517e+00       40
 9.551014818147171e+01 -2.100090737879527e+00  0.000000000000000e+00 -4.396094159777578e+00 -2.086230093232373e+00  2.691030938627057e+00       41
 9.789790188600848e+01 -2.285501961499942e+00  0.000000000000000e+00 -4.511032838171137e+00 -2.163998201705838e+00  2.591965555977676e+00       42
 1.002856555905453e+02 -2.475689457773631e+00  0.000000000000000e+00 -4.659270757191779e+00 -2.175841166085000e+00  2.489323647505217e+00       43
 1.026734092950821e+02 -2.673416518803269e+00  0.000000000000000e+00 -4.835838010877615e+00 -2.155303774975188e+00  2.383917231097341e+00       44
 1.050611629996189e+02 -2.878270102530454e+00  0.000000000000000e+00 -5.005495828934220e+00 -2.102909521958467e+00  2.275923816206998e+00       45
 1.074489167041557e+02 -3.090085737186208e+00  0.000000000000000e+00 -5.168345784830054e+00 -2.018403421317624e+00  2.165466732053696e+00       46
 1.098366704086924e+02 -3.308459127246535e+00  0.000000000000000e+00 -5.330253142233996e+00 -1.896743213972770e+00  2.052625082558482e+00       47
 1.122244241132292e+02 -3.533712868740941e+00  0.000000000000000e+00 -5.475360580644670e+00 -1.724325762660474e+00  1.937753326819164e+00       48
 1.146121778177661e+02 -3.764126986492635e+00  0.000000000000000e+00 -5.603366720297041e+00 -1.508125114401624e+00  1.819662967336163e+00       49
 1.169999315223028e+02 -3.999999999999996e+00  0.000000000000000e+00 -5.669179867062213e+00 -1.242387706272970e+00  5.000000000000000e-01       50
